NS ColMember_1.
    ElemID              NF [N]              My [Nmm]            Mz [Nmm]            Vy [N]              Vz [N]              T [N/mm]
          1.     -0.25308975E+04      0.18533629E+04     -0.20543564E+05     -0.24003679E+03     -0.24194684E+01     -0.14087785E+02
          2.     -0.25308975E+04      0.18291663E+04     -0.20402664E+05     -0.24003679E+03     -0.24199088E+01     -0.14092653E+02
          3.     -0.25308972E+04      0.18049653E+04     -0.20261715E+05     -0.24003677E+03     -0.24203439E+01     -0.14097488E+02
          4.     -0.25308967E+04      0.17807603E+04     -0.20120721E+05     -0.24003677E+03     -0.24207735E+01     -0.14102290E+02
          5.     -0.25308962E+04      0.17565511E+04     -0.19979680E+05     -0.24003677E+03     -0.24211977E+01     -0.14107058E+02
          6.     -0.25308958E+04      0.17323379E+04     -0.19838594E+05     -0.24003676E+03     -0.24216163E+01     -0.14111792E+02
          7.     -0.25308950E+04      0.17081207E+04     -0.19697463E+05     -0.24003676E+03     -0.24220295E+01     -0.14116491E+02
          8.     -0.25308943E+04      0.16838995E+04     -0.19556285E+05     -0.24003674E+03     -0.24224372E+01     -0.14121159E+02
          9.     -0.25308936E+04      0.16596744E+04     -0.19415064E+05     -0.24003673E+03     -0.24228394E+01     -0.14125791E+02
         10.     -0.25308923E+04      0.16354456E+04     -0.19273799E+05     -0.24003671E+03     -0.24232361E+01     -0.14130390E+02
         11.     -0.25308914E+04      0.16112129E+04     -0.19132488E+05     -0.24003670E+03     -0.24236274E+01     -0.14134955E+02
         12.     -0.25308901E+04      0.15869766E+04     -0.18991135E+05     -0.24003668E+03     -0.24240131E+01     -0.14139486E+02
         13.     -0.25308889E+04      0.15627366E+04     -0.18849738E+05     -0.24003667E+03     -0.24243934E+01     -0.14143984E+02
         14.     -0.25308875E+04      0.15384929E+04     -0.18708297E+05     -0.24003664E+03     -0.24247682E+01     -0.14148448E+02
         15.     -0.25308860E+04      0.15142457E+04     -0.18566814E+05     -0.24003662E+03     -0.24251375E+01     -0.14152878E+02
         16.     -0.25308845E+04      0.14899951E+04     -0.18425289E+05     -0.24003659E+03     -0.24255013E+01     -0.14157274E+02
         17.     -0.25308828E+04      0.14657410E+04     -0.18283721E+05     -0.24003658E+03     -0.24258597E+01     -0.14161637E+02
         18.     -0.25308811E+04      0.14414835E+04     -0.18142111E+05     -0.24003654E+03     -0.24262123E+01     -0.14165966E+02
         19.     -0.25308794E+04      0.14172227E+04     -0.18000461E+05     -0.24003651E+03     -0.24265597E+01     -0.14170260E+02
         20.     -0.25308774E+04      0.13929585E+04     -0.17858768E+05     -0.24003648E+03     -0.24269013E+01     -0.14174521E+02
         21.     -0.25308755E+04      0.13686913E+04     -0.17717035E+05     -0.24003645E+03     -0.24272375E+01     -0.14178749E+02
         22.     -0.25308735E+04      0.13444208E+04     -0.17575262E+05     -0.24003641E+03     -0.24275682E+01     -0.14182942E+02
         23.     -0.25308713E+04      0.13201472E+04     -0.17433447E+05     -0.24003638E+03     -0.24278934E+01     -0.14187102E+02
         24.     -0.25308694E+04      0.12958706E+04     -0.17291594E+05     -0.24003633E+03     -0.24282131E+01     -0.14191228E+02
         25.     -0.25308669E+04      0.12715911E+04     -0.17149701E+05     -0.24003630E+03     -0.24285271E+01     -0.14195319E+02
         26.     -0.25308647E+04      0.12473085E+04     -0.17007768E+05     -0.24003625E+03     -0.24288356E+01     -0.14199378E+02
         27.     -0.25308623E+04      0.12230231E+04     -0.16865797E+05     -0.24003621E+03     -0.24291387E+01     -0.14203402E+02
         28.     -0.25308599E+04      0.11987349E+04     -0.16723787E+05     -0.24003616E+03     -0.24294360E+01     -0.14207392E+02
         29.     -0.25308574E+04      0.11744438E+04     -0.16581738E+05     -0.24003612E+03     -0.24297278E+01     -0.14211349E+02
         30.     -0.25308550E+04      0.11501501E+04     -0.16439652E+05     -0.24003607E+03     -0.24300141E+01     -0.14215271E+02
         31.     -0.25308523E+04      0.11258538E+04     -0.16297528E+05     -0.24003603E+03     -0.24302948E+01     -0.14219160E+02
         32.     -0.25308496E+04      0.11015548E+04     -0.16155367E+05     -0.24003596E+03     -0.24305701E+01     -0.14223015E+02
         33.     -0.25308469E+04      0.10772533E+04     -0.16013170E+05     -0.24003592E+03     -0.24308395E+01     -0.14226835E+02
         34.     -0.25308442E+04      0.10529493E+04     -0.15870935E+05     -0.24003586E+03     -0.24311037E+01     -0.14230622E+02
         35.     -0.25308413E+04      0.10286428E+04     -0.15728664E+05     -0.24003581E+03     -0.24313622E+01     -0.14234376E+02
         36.     -0.25308386E+04      0.10043340E+04     -0.15586357E+05     -0.24003575E+03     -0.24316149E+01     -0.14238095E+02
         37.     -0.25308357E+04      0.98002295E+03     -0.15444015E+05     -0.24003569E+03     -0.24318621E+01     -0.14241780E+02
         38.     -0.25308328E+04      0.95570959E+03     -0.15301638E+05     -0.24003563E+03     -0.24321039E+01     -0.14245432E+02
         39.     -0.25308298E+04      0.93139398E+03     -0.15159225E+05     -0.24003557E+03     -0.24323399E+01     -0.14249049E+02
         40.     -0.25308267E+04      0.90707623E+03     -0.15016777E+05     -0.24003549E+03     -0.24325705E+01     -0.14252632E+02
         41.     -0.25308237E+04      0.88275641E+03     -0.14874296E+05     -0.24003543E+03     -0.24327953E+01     -0.14256182E+02
         42.     -0.25308206E+04      0.85843457E+03     -0.14731780E+05     -0.24003537E+03     -0.24330144E+01     -0.14259698E+02
         43.     -0.25308176E+04      0.83411072E+03     -0.14589230E+05     -0.24003529E+03     -0.24332283E+01     -0.14263180E+02
         44.     -0.25308145E+04      0.80978491E+03     -0.14446647E+05     -0.24003522E+03     -0.24334362E+01     -0.14266627E+02
         45.     -0.25308113E+04      0.78545728E+03     -0.14304032E+05     -0.24003516E+03     -0.24336386E+01     -0.14270041E+02
         46.     -0.25308081E+04      0.76112781E+03     -0.14161384E+05     -0.24003508E+03     -0.24338353E+01     -0.14273421E+02
         47.     -0.25308047E+04      0.73679663E+03     -0.14018703E+05     -0.24003500E+03     -0.24340265E+01     -0.14276767E+02
         48.     -0.25308015E+04      0.71246368E+03     -0.13875990E+05     -0.24003491E+03     -0.24342120E+01     -0.14280079E+02
         49.     -0.25307983E+04      0.68812909E+03     -0.13733246E+05     -0.24003484E+03     -0.24343920E+01     -0.14283357E+02
         50.     -0.25307949E+04      0.66379297E+03     -0.13590470E+05     -0.24003476E+03     -0.24345663E+01     -0.14286601E+02
         51.     -0.25307915E+04      0.63945526E+03     -0.13447663E+05     -0.24003467E+03     -0.24347348E+01     -0.14289811E+02
         52.     -0.25307883E+04      0.61511609E+03     -0.13304825E+05     -0.24003459E+03     -0.24348977E+01     -0.14292987E+02
         53.     -0.25307849E+04      0.59077551E+03     -0.13161957E+05     -0.24003450E+03     -0.24350550E+01     -0.14296129E+02
         54.     -0.25307815E+04      0.56643353E+03     -0.13019059E+05     -0.24003441E+03     -0.24352067E+01     -0.14299237E+02
         55.     -0.25307783E+04      0.54209027E+03     -0.12876131E+05     -0.24003432E+03     -0.24353528E+01     -0.14302311E+02
         56.     -0.25307749E+04      0.51774573E+03     -0.12733174E+05     -0.24003423E+03     -0.24354930E+01     -0.14305351E+02
         57.     -0.25307715E+04      0.49340002E+03     -0.12590188E+05     -0.24003413E+03     -0.24356277E+01     -0.14308357E+02
         58.     -0.25307681E+04      0.46905316E+03     -0.12447172E+05     -0.24003404E+03     -0.24357567E+01     -0.14311329E+02
         59.     -0.25307646E+04      0.44470523E+03     -0.12304128E+05     -0.24003395E+03     -0.24358799E+01     -0.14314267E+02
         60.     -0.25307612E+04      0.42035623E+03     -0.12161057E+05     -0.24003384E+03     -0.24359977E+01     -0.14317171E+02
         61.     -0.25307578E+04      0.39600629E+03     -0.12017957E+05     -0.24003375E+03     -0.24361095E+01     -0.14320041E+02
         62.     -0.25307544E+04      0.37165543E+03     -0.11874830E+05     -0.24003365E+03     -0.24362159E+01     -0.14322877E+02
         63.     -0.25307510E+04      0.34730371E+03     -0.11731676E+05     -0.24003354E+03     -0.24363165E+01     -0.14325679E+02
         64.     -0.25307476E+04      0.32295117E+03     -0.11588495E+05     -0.24003343E+03     -0.24364114E+01     -0.14328447E+02
         65.     -0.25307441E+04      0.29859787E+03     -0.11445288E+05     -0.24003333E+03     -0.24365005E+01     -0.14331181E+02
         66.     -0.25307407E+04      0.27424390E+03     -0.11302054E+05     -0.24003322E+03     -0.24365840E+01     -0.14333880E+02
         67.     -0.25307373E+04      0.24988928E+03     -0.11158795E+05     -0.24003311E+03     -0.24366620E+01     -0.14336546E+02
         68.     -0.25307339E+04      0.22553409E+03     -0.11015510E+05     -0.24003300E+03     -0.24367340E+01     -0.14339178E+02
         69.     -0.25307307E+04      0.20117836E+03     -0.10872200E+05     -0.24003288E+03     -0.24368002E+01     -0.14341776E+02
         70.     -0.25307273E+04      0.17682217E+03     -0.10728865E+05     -0.24003278E+03     -0.24368610E+01     -0.14344339E+02
         71.     -0.25307239E+04      0.15246558E+03     -0.10585506E+05     -0.24003265E+03     -0.24369159E+01     -0.14346869E+02
         72.     -0.25307205E+04      0.12810861E+03     -0.10442122E+05     -0.24003253E+03     -0.24369652E+01     -0.14349364E+02
         73.     -0.25307173E+04      0.10375135E+03     -0.10298715E+05     -0.24003241E+03     -0.24370086E+01     -0.14351826E+02
         74.     -0.25307139E+04      0.79393845E+02     -0.10155284E+05     -0.24003229E+03     -0.24370463E+01     -0.14354254E+02
         75.     -0.25307107E+04      0.55036148E+02     -0.10011830E+05     -0.24003217E+03     -0.24370785E+01     -0.14356647E+02
         76.     -0.25307073E+04      0.30678318E+02     -0.98683525E+04     -0.24003204E+03     -0.24371047E+01     -0.14359006E+02
         77.     -0.25307041E+04      0.63204136E+01     -0.97248535E+04     -0.24003192E+03     -0.24371252E+01     -0.14361331E+02
         78.     -0.25307009E+04     -0.18037512E+02     -0.95813311E+04     -0.24003178E+03     -0.24371400E+01     -0.14363622E+02
         79.     -0.25306975E+04     -0.42395401E+02     -0.94377881E+04     -0.24003166E+03     -0.24371490E+01     -0.14365879E+02
         80.     -0.25306943E+04     -0.66753197E+02     -0.92942227E+04     -0.24003152E+03     -0.24371524E+01     -0.14368102E+02
         81.     -0.25306912E+04     -0.91110847E+02     -0.91506367E+04     -0.24003139E+03     -0.24371500E+01     -0.14370291E+02
         82.     -0.25306882E+04     -0.11546830E+03     -0.90070293E+04     -0.24003125E+03     -0.24371417E+01     -0.14372446E+02
         83.     -0.25306851E+04     -0.13982547E+03     -0.88634014E+04     -0.24003111E+03     -0.24371278E+01     -0.14374566E+02
         84.     -0.25306819E+04     -0.16418233E+03     -0.87197529E+04     -0.24003098E+03     -0.24371080E+01     -0.14376653E+02
         85.     -0.25306790E+04     -0.18853882E+03     -0.85760850E+04     -0.24003084E+03     -0.24370825E+01     -0.14378705E+02
         86.     -0.25306758E+04     -0.21289488E+03     -0.84323975E+04     -0.24003070E+03     -0.24370513E+01     -0.14380724E+02
         87.     -0.25306729E+04     -0.23725046E+03     -0.82886904E+04     -0.24003056E+03     -0.24370141E+01     -0.14382708E+02
         88.     -0.25306699E+04     -0.26160550E+03     -0.81449648E+04     -0.24003041E+03     -0.24369712E+01     -0.14384658E+02
         89.     -0.25306670E+04     -0.28595996E+03     -0.80012202E+04     -0.24003026E+03     -0.24369226E+01     -0.14386574E+02
         90.     -0.25306641E+04     -0.31031375E+03     -0.78574575E+04     -0.24003012E+03     -0.24368682E+01     -0.14388456E+02
         91.     -0.25306611E+04     -0.33466684E+03     -0.77136772E+04     -0.24002997E+03     -0.24368081E+01     -0.14390304E+02
         92.     -0.25306584E+04     -0.35901917E+03     -0.75698789E+04     -0.24002982E+03     -0.24367421E+01     -0.14392118E+02
         93.     -0.25306555E+04     -0.38337067E+03     -0.74260635E+04     -0.24002966E+03     -0.24366703E+01     -0.14393897E+02
         94.     -0.25306528E+04     -0.40772131E+03     -0.72822310E+04     -0.24002951E+03     -0.24365926E+01     -0.14395642E+02
         95.     -0.25306501E+04     -0.43207098E+03     -0.71383818E+04     -0.24002934E+03     -0.24365091E+01     -0.14397353E+02
         96.     -0.25306475E+04     -0.45641971E+03     -0.69945161E+04     -0.24002919E+03     -0.24364200E+01     -0.14399031E+02
         97.     -0.25306448E+04     -0.48076736E+03     -0.68506348E+04     -0.24002904E+03     -0.24363248E+01     -0.14400674E+02
         98.     -0.25306421E+04     -0.50511392E+03     -0.67067378E+04     -0.24002887E+03     -0.24362240E+01     -0.14402283E+02
         99.     -0.25306396E+04     -0.52945935E+03     -0.65628257E+04     -0.24002870E+03     -0.24361174E+01     -0.14403857E+02
        100.     -0.25306372E+04     -0.55380353E+03     -0.64188984E+04     -0.24002855E+03     -0.24360049E+01     -0.14405398E+02
        101.     -0.25306348E+04     -0.57814648E+03     -0.62749565E+04     -0.24002838E+03     -0.24358866E+01     -0.14406905E+02
        102.     -0.25306323E+04     -0.60248804E+03     -0.61310000E+04     -0.24002821E+03     -0.24357624E+01     -0.14408377E+02
        103.     -0.25306299E+04     -0.62682825E+03     -0.59870298E+04     -0.24002805E+03     -0.24356325E+01     -0.14409816E+02
        104.     -0.25306277E+04     -0.65116705E+03     -0.58430459E+04     -0.24002786E+03     -0.24354966E+01     -0.14411220E+02
        105.     -0.25306252E+04     -0.67550433E+03     -0.56990483E+04     -0.24002769E+03     -0.24353549E+01     -0.14412589E+02
        106.     -0.25306230E+04     -0.69984009E+03     -0.55550381E+04     -0.24002753E+03     -0.24352074E+01     -0.14413925E+02
        107.     -0.25306208E+04     -0.72417419E+03     -0.54110151E+04     -0.24002734E+03     -0.24350541E+01     -0.14415227E+02
        108.     -0.25306187E+04     -0.74850665E+03     -0.52669795E+04     -0.24002716E+03     -0.24348948E+01     -0.14416494E+02
        109.     -0.25306167E+04     -0.77283746E+03     -0.51229321E+04     -0.24002699E+03     -0.24347296E+01     -0.14417727E+02
        110.     -0.25306147E+04     -0.79716644E+03     -0.49788730E+04     -0.24002681E+03     -0.24345586E+01     -0.14418927E+02
        111.     -0.25306128E+04     -0.82149359E+03     -0.48348027E+04     -0.24002663E+03     -0.24343820E+01     -0.14420092E+02
        112.     -0.25306108E+04     -0.84581885E+03     -0.46907212E+04     -0.24002644E+03     -0.24341993E+01     -0.14421223E+02
        113.     -0.25306089E+04     -0.87014215E+03     -0.45466289E+04     -0.24002625E+03     -0.24340107E+01     -0.14422319E+02
        114.     -0.25306072E+04     -0.89446350E+03     -0.44025264E+04     -0.24002606E+03     -0.24338164E+01     -0.14423383E+02
        115.     -0.25306052E+04     -0.91878278E+03     -0.42584136E+04     -0.24002588E+03     -0.24336162E+01     -0.14424411E+02
        116.     -0.25306035E+04     -0.94309991E+03     -0.41142915E+04     -0.24002568E+03     -0.24334099E+01     -0.14425406E+02
        117.     -0.25306021E+04     -0.96741492E+03     -0.39701594E+04     -0.24002550E+03     -0.24331980E+01     -0.14426365E+02
        118.     -0.25306003E+04     -0.99172772E+03     -0.38260188E+04     -0.24002530E+03     -0.24329801E+01     -0.14427291E+02
        119.     -0.25305989E+04     -0.10160382E+04     -0.36818691E+04     -0.24002510E+03     -0.24327562E+01     -0.14428183E+02
        120.     -0.25305974E+04     -0.10403464E+04     -0.35377112E+04     -0.24002490E+03     -0.24325264E+01     -0.14429041E+02
        121.     -0.25305959E+04     -0.10646521E+04     -0.33935449E+04     -0.24002470E+03     -0.24322908E+01     -0.14429864E+02
        122.     -0.25305945E+04     -0.10889554E+04     -0.32493711E+04     -0.24002451E+03     -0.24320493E+01     -0.14430654E+02
        123.     -0.25305933E+04     -0.11132563E+04     -0.31051899E+04     -0.24002431E+03     -0.24318020E+01     -0.14431409E+02
        124.     -0.25305920E+04     -0.11375546E+04     -0.29610015E+04     -0.24002409E+03     -0.24315486E+01     -0.14432130E+02
        125.     -0.25305908E+04     -0.11618502E+04     -0.28168064E+04     -0.24002390E+03     -0.24312894E+01     -0.14432817E+02
        126.     -0.25305896E+04     -0.11861432E+04     -0.26726050E+04     -0.24002368E+03     -0.24310243E+01     -0.14433469E+02
        127.     -0.25305886E+04     -0.12104335E+04     -0.25283972E+04     -0.24002348E+03     -0.24307532E+01     -0.14434088E+02
        128.     -0.25305874E+04     -0.12347209E+04     -0.23841838E+04     -0.24002327E+03     -0.24304764E+01     -0.14434672E+02
        129.     -0.25305864E+04     -0.12590056E+04     -0.22399648E+04     -0.24002306E+03     -0.24301934E+01     -0.14435222E+02
        130.     -0.25305857E+04     -0.12832874E+04     -0.20957410E+04     -0.24002284E+03     -0.24299047E+01     -0.14435739E+02
        131.     -0.25305847E+04     -0.13075662E+04     -0.19515121E+04     -0.24002263E+03     -0.24296100E+01     -0.14436220E+02
        132.     -0.25305840E+04     -0.13318420E+04     -0.18072788E+04     -0.24002242E+03     -0.24293094E+01     -0.14436667E+02
        133.     -0.25305833E+04     -0.13561147E+04     -0.16630415E+04     -0.24002220E+03     -0.24290028E+01     -0.14437081E+02
        134.     -0.25305825E+04     -0.13803844E+04     -0.15188003E+04     -0.24002197E+03     -0.24286902E+01     -0.14437461E+02
        135.     -0.25305820E+04     -0.14046508E+04     -0.13745555E+04     -0.24002176E+03     -0.24283717E+01     -0.14437805E+02
        136.     -0.25305815E+04     -0.14289141E+04     -0.12303077E+04     -0.24002153E+03     -0.24280472E+01     -0.14438117E+02
        137.     -0.25305811E+04     -0.14531740E+04     -0.10860571E+04     -0.24002130E+03     -0.24277170E+01     -0.14438394E+02
        138.     -0.25305806E+04     -0.14774305E+04     -0.94180402E+03     -0.24002109E+03     -0.24273806E+01     -0.14438636E+02
        139.     -0.25305803E+04     -0.15016837E+04     -0.79754877E+03     -0.24002086E+03     -0.24270384E+01     -0.14438845E+02
        140.     -0.25305798E+04     -0.15259335E+04     -0.65329169E+03     -0.24002063E+03     -0.24266901E+01     -0.14439019E+02
        141.     -0.25305796E+04     -0.15501797E+04     -0.50903308E+03     -0.24002040E+03     -0.24263361E+01     -0.14439159E+02
        142.     -0.25305796E+04     -0.15744224E+04     -0.36477328E+03     -0.24002016E+03     -0.24259758E+01     -0.14439265E+02
        143.     -0.25305793E+04     -0.15986614E+04     -0.22051268E+03     -0.24001993E+03     -0.24256096E+01     -0.14439337E+02
        144.     -0.25305793E+04     -0.16228969E+04     -0.76251564E+02     -0.24001970E+03     -0.24252377E+01     -0.14439375E+02
        145.     -0.25305793E+04     -0.16471284E+04      0.68009743E+02     -0.24001945E+03     -0.24248595E+01     -0.14439378E+02
        146.     -0.25305796E+04     -0.16713563E+04      0.21227090E+03     -0.24001921E+03     -0.24244754E+01     -0.14439347E+02
        147.     -0.25305796E+04     -0.16955803E+04      0.35653159E+03     -0.24001898E+03     -0.24240856E+01     -0.14439282E+02
        148.     -0.25305798E+04     -0.17198004E+04      0.50079147E+03     -0.24001874E+03     -0.24236896E+01     -0.14439183E+02
        149.     -0.25305801E+04     -0.17440166E+04      0.64505023E+03     -0.24001849E+03     -0.24232876E+01     -0.14439051E+02
