NS ColMember_1.
    ElemID              NF [N]              My [Nmm]            Mz [Nmm]            Vy [N]              Vz [N]              T [N/mm]
          1.     -0.27559306E+06      0.22763004E-12     -0.76394906E+05      0.22545733E-12     -0.52866608E-16     -0.51909241E+02
          2.     -0.27559306E+06      0.22742778E-12     -0.75848188E+05      0.23054746E-12      0.27983607E-15     -0.21510887E+03
          3.     -0.27559306E+06      0.22723445E-12     -0.75286055E+05      0.23559380E-12      0.61208162E-15     -0.37828534E+03
          4.     -0.27559306E+06      0.22704957E-12     -0.74708633E+05      0.24059544E-12      0.94356802E-15     -0.54137677E+03
          5.     -0.27559303E+06      0.22687269E-12     -0.74116023E+05      0.24555154E-12      0.12739958E-14     -0.70432172E+03
          6.     -0.27559303E+06      0.22670334E-12     -0.73508352E+05      0.25046127E-12      0.16030679E-14     -0.86705878E+03
          7.     -0.27559300E+06      0.22654104E-12     -0.72885742E+05      0.25532376E-12      0.19304902E-14     -0.10295270E+04
          8.     -0.27559297E+06      0.22638530E-12     -0.72248320E+05      0.26013816E-12      0.22559710E-14     -0.11916658E+04
          9.     -0.27559294E+06      0.22623562E-12     -0.71596219E+05      0.26490366E-12      0.25792221E-14     -0.13534148E+04
         10.     -0.27559291E+06      0.22609147E-12     -0.70929570E+05      0.26961948E-12      0.28999581E-14     -0.15147141E+04
         11.     -0.27559288E+06      0.22595235E-12     -0.70248508E+05      0.27428472E-12      0.32178968E-14     -0.16755040E+04
         12.     -0.27559281E+06      0.22581774E-12     -0.69553164E+05      0.27889868E-12      0.35327595E-14     -0.18357255E+04
         13.     -0.27559278E+06      0.22568706E-12     -0.68843695E+05      0.28346048E-12      0.38442709E-14     -0.19953195E+04
         14.     -0.27559272E+06      0.22555981E-12     -0.68120234E+05      0.28796938E-12      0.41521593E-14     -0.21542278E+04
         15.     -0.27559266E+06      0.22543538E-12     -0.67382930E+05      0.29242461E-12      0.44561565E-14     -0.23123926E+04
         16.     -0.27559259E+06      0.22531324E-12     -0.66631930E+05      0.29682542E-12      0.47559981E-14     -0.24697561E+04
         17.     -0.27559253E+06      0.22519280E-12     -0.65867391E+05      0.30117101E-12      0.50514246E-14     -0.26262615E+04
         18.     -0.27559247E+06      0.22507347E-12     -0.65089461E+05      0.30546065E-12      0.53421792E-14     -0.27818523E+04
         19.     -0.27559238E+06      0.22495468E-12     -0.64298312E+05      0.30969365E-12      0.56280100E-14     -0.29364724E+04
         20.     -0.27559231E+06      0.22483582E-12     -0.63494094E+05      0.31386921E-12      0.59086693E-14     -0.30900662E+04
         21.     -0.27559222E+06      0.22471628E-12     -0.62676973E+05      0.31798669E-12      0.61839144E-14     -0.32425789E+04
         22.     -0.27559212E+06      0.22459543E-12     -0.61847113E+05      0.32204534E-12      0.64535055E-14     -0.33939561E+04
         23.     -0.27559203E+06      0.22447269E-12     -0.61004688E+05      0.32604450E-12      0.67172084E-14     -0.35441436E+04
         24.     -0.27559194E+06      0.22434738E-12     -0.60149863E+05      0.32998344E-12      0.69747945E-14     -0.36930884E+04
         25.     -0.27559184E+06      0.22421890E-12     -0.59282816E+05      0.33386155E-12      0.72260389E-14     -0.38407378E+04
         26.     -0.27559175E+06      0.22408660E-12     -0.58403723E+05      0.33767810E-12      0.74707205E-14     -0.39870398E+04
         27.     -0.27559166E+06      0.22394983E-12     -0.57512762E+05      0.34143248E-12      0.77086266E-14     -0.41319429E+04
         28.     -0.27559153E+06      0.22380794E-12     -0.56610113E+05      0.34512405E-12      0.79395456E-14     -0.42753960E+04
         29.     -0.27559144E+06      0.22366026E-12     -0.55695957E+05      0.34875217E-12      0.81632741E-14     -0.44173491E+04
         30.     -0.27559131E+06      0.22350612E-12     -0.54770484E+05      0.35231621E-12      0.83796131E-14     -0.45577524E+04
         31.     -0.27559122E+06      0.22334488E-12     -0.53833883E+05      0.35581558E-12      0.85883677E-14     -0.46965576E+04
         32.     -0.27559109E+06      0.22317583E-12     -0.52886340E+05      0.35924971E-12      0.87893500E-14     -0.48337168E+04
         33.     -0.27559097E+06      0.22299831E-12     -0.51928047E+05      0.36261795E-12      0.89823778E-14     -0.49691816E+04
         34.     -0.27559084E+06      0.22281164E-12     -0.50959203E+05      0.36591978E-12      0.91672733E-14     -0.51029062E+04
         35.     -0.27559072E+06      0.22261511E-12     -0.49980004E+05      0.36915463E-12      0.93438652E-14     -0.52348438E+04
         36.     -0.27559059E+06      0.22240804E-12     -0.48990648E+05      0.37232194E-12      0.95119877E-14     -0.53649497E+04
         37.     -0.27559047E+06      0.22218975E-12     -0.47991336E+05      0.37542116E-12      0.96714815E-14     -0.54931792E+04
         38.     -0.27559034E+06      0.22195951E-12     -0.46982273E+05      0.37845180E-12      0.98221915E-14     -0.56194888E+04
         39.     -0.27559022E+06      0.22171663E-12     -0.45963660E+05      0.38141330E-12      0.99639713E-14     -0.57438354E+04
         40.     -0.27559009E+06      0.22146042E-12     -0.44935707E+05      0.38430519E-12      0.10096678E-13     -0.58661768E+04
         41.     -0.27558997E+06      0.22119015E-12     -0.43898621E+05      0.38712699E-12      0.10220177E-13     -0.59864717E+04
         42.     -0.27558981E+06      0.22090512E-12     -0.42852613E+05      0.38987818E-12      0.10334336E-13     -0.61046797E+04
         43.     -0.27558969E+06      0.22060461E-12     -0.41797898E+05      0.39255833E-12      0.10439036E-13     -0.62207607E+04
         44.     -0.27558956E+06      0.22028791E-12     -0.40734691E+05      0.39516697E-12      0.10534157E-13     -0.63346763E+04
         45.     -0.27558941E+06      0.21995432E-12     -0.39663203E+05      0.39770368E-12      0.10619590E-13     -0.64463882E+04
         46.     -0.27558928E+06      0.21960310E-12     -0.38583652E+05      0.40016799E-12      0.10695230E-13     -0.65558594E+04
         47.     -0.27558916E+06      0.21923354E-12     -0.37496266E+05      0.40255952E-12      0.10760980E-13     -0.66630537E+04
         48.     -0.27558903E+06      0.21884493E-12     -0.36401254E+05      0.40487785E-12      0.10816749E-13     -0.67679351E+04
         49.     -0.27558888E+06      0.21843654E-12     -0.35298848E+05      0.40712258E-12      0.10862452E-13     -0.68704697E+04
         50.     -0.27558875E+06      0.21800766E-12     -0.34189266E+05      0.40929334E-12      0.10898011E-13     -0.69706235E+04
         51.     -0.27558862E+06      0.21755757E-12     -0.33072738E+05      0.41138978E-12      0.10923356E-13     -0.70683643E+04
         52.     -0.27558850E+06      0.21708553E-12     -0.31949486E+05      0.41341152E-12      0.10938420E-13     -0.71636592E+04
         53.     -0.27558838E+06      0.21659085E-12     -0.30819742E+05      0.41535826E-12      0.10943147E-13     -0.72564780E+04
         54.     -0.27558825E+06      0.21607282E-12     -0.29683736E+05      0.41722962E-12      0.10937487E-13     -0.73467910E+04
         55.     -0.27558809E+06      0.21553069E-12     -0.28541697E+05      0.41902530E-12      0.10921393E-13     -0.74345684E+04
         56.     -0.27558797E+06      0.21496378E-12     -0.27393855E+05      0.42074504E-12      0.10894829E-13     -0.75197827E+04
         57.     -0.27558788E+06      0.21437135E-12     -0.26240449E+05      0.42238852E-12      0.10857765E-13     -0.76024067E+04
         58.     -0.27558775E+06      0.21375272E-12     -0.25081709E+05      0.42395544E-12      0.10810177E-13     -0.76824141E+04
         59.     -0.27558762E+06      0.21310716E-12     -0.23917871E+05      0.42544559E-12      0.10752046E-13     -0.77597793E+04
         60.     -0.27558750E+06      0.21243398E-12     -0.22749172E+05      0.42685866E-12      0.10683366E-13     -0.78344790E+04
         61.     -0.27558741E+06      0.21173246E-12     -0.21575850E+05      0.42819448E-12      0.10604131E-13     -0.79064888E+04
         62.     -0.27558728E+06      0.21100192E-12     -0.20398143E+05      0.42945278E-12      0.10514346E-13     -0.79757871E+04
         63.     -0.27558719E+06      0.21024167E-12     -0.19216289E+05      0.43063339E-12      0.10414021E-13     -0.80423530E+04
         64.     -0.27558706E+06      0.20945100E-12     -0.18030531E+05      0.43173608E-12      0.10303175E-13     -0.81061655E+04
         65.     -0.27558697E+06      0.20862924E-12     -0.16841107E+05      0.43276065E-12      0.10181832E-13     -0.81672051E+04
         66.     -0.27558688E+06      0.20777569E-12     -0.15648263E+05      0.43370700E-12      0.10050023E-13     -0.82254541E+04
         67.     -0.27558678E+06      0.20688969E-12     -0.14452236E+05      0.43457490E-12      0.99077876E-14     -0.82808955E+04
         68.     -0.27558669E+06      0.20597056E-12     -0.13253272E+05      0.43536426E-12      0.97551717E-14     -0.83335127E+04
         69.     -0.27558659E+06      0.20501764E-12     -0.12051615E+05      0.43607492E-12      0.95922263E-14     -0.83832900E+04
         70.     -0.27558650E+06      0.20403026E-12     -0.10847508E+05      0.43670677E-12      0.94190115E-14     -0.84302139E+04
         71.     -0.27558644E+06      0.20300776E-12     -0.96411963E+04      0.43725974E-12      0.92355941E-14     -0.84742715E+04
         72.     -0.27558634E+06      0.20194951E-12     -0.84329248E+04      0.43773370E-12      0.90420462E-14     -0.85154492E+04
         73.     -0.27558628E+06      0.20085485E-12     -0.72229385E+04      0.43812856E-12      0.88384491E-14     -0.85537373E+04
         74.     -0.27558622E+06      0.19972315E-12     -0.60114844E+04      0.43844434E-12      0.86248884E-14     -0.85891250E+04
         75.     -0.27558616E+06      0.19855377E-12     -0.47988081E+04      0.43868091E-12      0.84014589E-14     -0.86216035E+04
         76.     -0.27558609E+06      0.19734610E-12     -0.35851565E+04      0.43883826E-12      0.81682597E-14     -0.86511650E+04
         77.     -0.27558603E+06      0.19609951E-12     -0.23707754E+04      0.43891640E-12      0.79253993E-14     -0.86778027E+04
         78.     -0.27558597E+06      0.19481342E-12     -0.11559122E+04      0.43891529E-12      0.76729911E-14     -0.87015098E+04
         79.     -0.27558594E+06      0.19348719E-12      0.59186390E+02      0.43883492E-12      0.74111554E-14     -0.87222822E+04
         80.     -0.27558591E+06      0.19212027E-12      0.12742734E+04      0.43867535E-12      0.71400202E-14     -0.87401152E+04
         81.     -0.27558584E+06      0.19071206E-12      0.24891021E+04      0.43843661E-12      0.68597196E-14     -0.87550078E+04
         82.     -0.27558581E+06      0.18926198E-12      0.37034255E+04      0.43811873E-12      0.65703935E-14     -0.87669570E+04
         83.     -0.27558581E+06      0.18776946E-12      0.49169966E+04      0.43772177E-12      0.62721888E-14     -0.87759619E+04
         84.     -0.27558578E+06      0.18623398E-12      0.61295693E+04      0.43724581E-12      0.59652592E-14     -0.87820234E+04
         85.     -0.27558575E+06      0.18465494E-12      0.73408965E+04      0.43669094E-12      0.56497648E-14     -0.87851436E+04
         86.     -0.27558575E+06      0.18303185E-12      0.85507324E+04      0.43605725E-12      0.53258721E-14     -0.87853232E+04
         87.     -0.27558575E+06      0.18136417E-12      0.97588311E+04      0.43534485E-12      0.49937530E-14     -0.87825674E+04
         88.     -0.27558572E+06      0.17965138E-12      0.10964948E+05      0.43455390E-12      0.46535872E-14     -0.87768799E+04
         89.     -0.27558572E+06      0.17789297E-12      0.12168836E+05      0.43368450E-12      0.43055591E-14     -0.87682666E+04
         90.     -0.27558575E+06      0.17608845E-12      0.13370252E+05      0.43273685E-12      0.39498603E-14     -0.87567344E+04
         91.     -0.27558575E+06      0.17423735E-12      0.14568952E+05      0.43171109E-12      0.35866877E-14     -0.87422900E+04
         92.     -0.27558578E+06      0.17233917E-12      0.15764691E+05      0.43060740E-12      0.32162451E-14     -0.87249434E+04
         93.     -0.27558578E+06      0.17039347E-12      0.16957227E+05      0.42942597E-12      0.28387409E-14     -0.87047031E+04
         94.     -0.27558581E+06      0.16839980E-12      0.18146318E+05      0.42816705E-12      0.24543908E-14     -0.86815811E+04
         95.     -0.27558584E+06      0.16635772E-12      0.19331723E+05      0.42683080E-12      0.20634155E-14     -0.86555879E+04
         96.     -0.27558588E+06      0.16426681E-12      0.20513197E+05      0.42541751E-12      0.16660412E-14     -0.86267373E+04
         97.     -0.27558591E+06      0.16212665E-12      0.21690506E+05      0.42392739E-12      0.12625002E-14     -0.85950439E+04
         98.     -0.27558597E+06      0.15993684E-12      0.22863404E+05      0.42236071E-12      0.85302999E-15     -0.85605205E+04
         99.     -0.27558600E+06      0.15769700E-12      0.24031660E+05      0.42071777E-12      0.43787381E-15     -0.85231846E+04
        100.     -0.27558606E+06      0.15540676E-12      0.25195031E+05      0.41899882E-12      0.17279995E-16     -0.84830518E+04
NS ColMember_2.
    ElemID              NF [N]              My [Nmm]            Mz [Nmm]            Vy [N]              Vz [N]              T [N/mm]
        101.     -0.92649512E+04     -0.15235617E-12     -0.26198375E+05      0.39666035E-12     -0.77694002E-15     -0.78195405E+04
        102.     -0.92649004E+04     -0.15290637E-12     -0.25099285E+05      0.39671969E-12     -0.36453373E-15     -0.78611699E+04
        103.     -0.92648535E+04     -0.15345478E-12     -0.24000023E+05      0.39677655E-12      0.39805804E-16     -0.79004121E+04
        104.     -0.92648096E+04     -0.15400140E-12     -0.22900600E+05      0.39683098E-12      0.43606990E-15     -0.79372666E+04
        105.     -0.92647695E+04     -0.15454626E-12     -0.21801020E+05      0.39688299E-12      0.82425009E-15     -0.79717324E+04
        106.     -0.92647314E+04     -0.15508939E-12     -0.20701291E+05      0.39693262E-12      0.12043381E-14     -0.80038091E+04
        107.     -0.92646982E+04     -0.15563080E-12     -0.19601422E+05      0.39697989E-12      0.15763260E-14     -0.80334966E+04
        108.     -0.92646680E+04     -0.15617051E-12     -0.18501420E+05      0.39702467E-12      0.19402056E-14     -0.80607935E+04
        109.     -0.92646406E+04     -0.15670858E-12     -0.17401291E+05      0.39706701E-12      0.22959698E-14     -0.80857007E+04
        110.     -0.92646172E+04     -0.15724499E-12     -0.16301045E+05      0.39710699E-12      0.26436108E-14     -0.81082168E+04
        111.     -0.92645967E+04     -0.15777977E-12     -0.15200688E+05      0.39714448E-12      0.29831215E-14     -0.81283418E+04
        112.     -0.92645801E+04     -0.15831295E-12     -0.14100227E+05      0.39717960E-12      0.33144948E-14     -0.81460752E+04
        113.     -0.92645674E+04     -0.15884456E-12     -0.12999669E+05      0.39721224E-12      0.36377240E-14     -0.81614165E+04
        114.     -0.92645576E+04     -0.15937463E-12     -0.11899023E+05      0.39724249E-12      0.39528025E-14     -0.81743657E+04
        115.     -0.92645518E+04     -0.15990315E-12     -0.10798298E+05      0.39727035E-12      0.42597236E-14     -0.81849229E+04
        116.     -0.92645488E+04     -0.16043018E-12     -0.96974980E+04      0.39729569E-12      0.45584814E-14     -0.81930869E+04
        117.     -0.92645498E+04     -0.16095571E-12     -0.85966318E+04      0.39731868E-12      0.48490701E-14     -0.81988584E+04
        118.     -0.92645537E+04     -0.16147980E-12     -0.74957075E+04      0.39733917E-12      0.51314840E-14     -0.82022373E+04
        119.     -0.92645615E+04     -0.16200244E-12     -0.63947324E+04      0.39735739E-12      0.54057168E-14     -0.82032227E+04
        120.     -0.92645732E+04     -0.16252365E-12     -0.52937134E+04      0.39737308E-12      0.56717640E-14     -0.82018145E+04
        121.     -0.92645879E+04     -0.16304349E-12     -0.41926587E+04      0.39738625E-12      0.59296198E-14     -0.81980137E+04
        122.     -0.92646064E+04     -0.16356195E-12     -0.30915754E+04      0.39739704E-12      0.61792798E-14     -0.81918188E+04
        123.     -0.92646279E+04     -0.16407908E-12     -0.19904712E+04      0.39740542E-12      0.64207393E-14     -0.81832310E+04
        124.     -0.92646533E+04     -0.16459487E-12     -0.88935333E+03      0.39741130E-12      0.66539931E-14     -0.81722500E+04
        125.     -0.92646816E+04     -0.16510938E-12      0.21177058E+03      0.39741482E-12      0.68790379E-14     -0.81588750E+04
        126.     -0.92647139E+04     -0.16562260E-12      0.13128931E+04      0.39741588E-12      0.70958686E-14     -0.81431074E+04
        127.     -0.92647500E+04     -0.16613458E-12      0.24140066E+04      0.39741444E-12      0.73044818E-14     -0.81249463E+04
        128.     -0.92647881E+04     -0.16664532E-12      0.35151035E+04      0.39741062E-12      0.75048737E-14     -0.81043921E+04
        129.     -0.92648301E+04     -0.16715485E-12      0.46161768E+04      0.39740441E-12      0.76970418E-14     -0.80814453E+04
        130.     -0.92648750E+04     -0.16766321E-12      0.57172188E+04      0.39739571E-12      0.78809809E-14     -0.80561055E+04
        131.     -0.92649238E+04     -0.16817041E-12      0.68182212E+04      0.39738457E-12      0.80566894E-14     -0.80283735E+04
        132.     -0.92649756E+04     -0.16867646E-12      0.79191777E+04      0.39737086E-12      0.82241639E-14     -0.79982490E+04
        133.     -0.92650303E+04     -0.16918140E-12      0.90200801E+04      0.39735484E-12      0.83834027E-14     -0.79657329E+04
        134.     -0.92650879E+04     -0.16968526E-12      0.10120922E+05      0.39733638E-12      0.85344024E-14     -0.79308252E+04
        135.     -0.92651494E+04     -0.17018806E-12      0.11221693E+05      0.39731545E-12      0.86771605E-14     -0.78935264E+04
        136.     -0.92652129E+04     -0.17068980E-12      0.12322390E+05      0.39729206E-12      0.88116753E-14     -0.78538364E+04
        137.     -0.92652793E+04     -0.17119052E-12      0.13423002E+05      0.39726618E-12      0.89379459E-14     -0.78117559E+04
        138.     -0.92653486E+04     -0.17169024E-12      0.14523522E+05      0.39723785E-12      0.90559697E-14     -0.77672856E+04
        139.     -0.92654219E+04     -0.17218900E-12      0.15623944E+05      0.39720722E-12      0.91657461E-14     -0.77204253E+04
        140.     -0.92654961E+04     -0.17268680E-12      0.16724260E+05      0.39717397E-12      0.92672731E-14     -0.76711763E+04
        141.     -0.92655742E+04     -0.17318368E-12      0.17824461E+05      0.39713830E-12      0.93605501E-14     -0.76195386E+04
        142.     -0.92656543E+04     -0.17367965E-12      0.18924543E+05      0.39710019E-12      0.94455769E-14     -0.75655132E+04
        143.     -0.92657373E+04     -0.17417475E-12      0.20024494E+05      0.39705964E-12      0.95223520E-14     -0.75091001E+04
        144.     -0.92658232E+04     -0.17466898E-12      0.21124311E+05      0.39701668E-12      0.95908761E-14     -0.74503003E+04
        145.     -0.92659102E+04     -0.17516239E-12      0.22223980E+05      0.39697117E-12      0.96511476E-14     -0.73891143E+04
        146.     -0.92660000E+04     -0.17565497E-12      0.23323502E+05      0.39692327E-12      0.97031681E-14     -0.73255425E+04
        147.     -0.92660928E+04     -0.17614678E-12      0.24422863E+05      0.39687283E-12      0.97469377E-14     -0.72595864E+04
        148.     -0.92661865E+04     -0.17663781E-12      0.25522059E+05      0.39682000E-12      0.97824564E-14     -0.71912456E+04
